# inc-ttH  pt(t        central        num_err    min (scale)        num_err    max (scale)        num_err
# bar)
              0     0.20456564   0.0011470471     0.18242442   0.0010054709     0.22602598   0.0013294845
             10     0.60452101   0.0019676376     0.53854129   0.0017211504       0.668889   0.0022784239
             20     0.98920582   0.0025077975     0.88117449   0.0021953834      1.0943518   0.0029024678
             30      1.3465264   0.0029291199      1.2002435   0.0025634323        1.48767   0.0033886509
             40      1.6553243   0.0032333652      1.4762195   0.0028301912      1.8265941   0.0037377105
             50      1.9293802   0.0034862554      1.7227448   0.0030919256      2.1242291   0.0041216249
             60      2.1519912   0.0036800133      1.9209239   0.0032212195      2.3689409   0.0042546478
             70      2.3148115   0.0038155133      2.0693208   0.0033448636      2.5409522   0.0044117615
             80      2.4318548   0.0039118854      2.1765812   0.0034329913      2.6625197    0.004521052
             90      2.5051474   0.0039729536      2.2436012   0.0034856217      2.7379608    0.004583932
            100      2.5248273   0.0039922683      2.2640381   0.0035072538      2.7521728   0.0046118427
            110      2.5072066   0.0039869242      2.2507539   0.0035039382      2.7258312   0.0046021792
            120      2.4551619     0.00394907      2.2069175   0.0034767287      2.6611729   0.0045626501
            130      2.3730446   0.0038917732      2.1367394    0.003464599       2.562927   0.0045682886
            140      2.2691467   0.0038179993      2.0457472    0.003383892      2.4437101   0.0044632854
            150      2.1673224   0.0037363652      1.9568756   0.0032920056      2.3260635   0.0042937985
            160      2.0378006   0.0036339141      1.8439079   0.0032071722      2.1772337    0.004184591
            170      1.9081024   0.0035225063      1.7283664   0.0031129401      2.0333543    0.004059001
            180      1.7796674   0.0034139654      1.6155838   0.0030228347       1.887629   0.0039458775
            190      1.6423917   0.0032901423      1.4939738   0.0029175686      1.7340987   0.0038128371
            200      1.5108838    0.003163635      1.3766652    0.002801272      1.5890685   0.0036407547
            210      1.3922573   0.0030446492      1.2713634   0.0027025956      1.4572059   0.0035130489
            220      1.2672481   0.0029155093      1.1595119   0.0025915815      1.3204582   0.0033763141
            230      1.1537596   0.0027906552      1.0583124   0.0024988521      1.1956038   0.0032896533
            240      1.0500334   0.0026721759     0.96606185   0.0023869429      1.0813167   0.0031064246
            250     0.95372005   0.0025511884     0.87862593   0.0022944127     0.97876087    0.003013872
            260     0.86425099   0.0024387588      0.7986694   0.0023490037     0.88260676   0.0031460355
            270     0.77913454   0.0023272789     0.72214005   0.0020862291     0.79416505   0.0024017086
            280     0.70436341   0.0022206286     0.65336076   0.0019828714     0.71773245   0.0022933379
            290      0.6371035   0.0021197855     0.59206664   0.0018974829     0.64873492   0.0021921418
            300      0.5720455    0.002014729     0.53351026    0.001805187     0.58164902   0.0020822724
            310      0.5166399   0.0019207043     0.48343721   0.0017345856     0.52449724   0.0019914294
            320     0.46318377   0.0018323765     0.43500385   0.0016523291     0.46996547   0.0018943863
            330     0.41948478   0.0017458304     0.39439906   0.0015828049     0.42492977     0.00180971
            340     0.37922796   0.0016656748     0.35708528   0.0014898876     0.38412767   0.0017220135
            350     0.33867176   0.0015820241     0.31983361    0.001415994     0.34228798   0.0016378403
            360     0.30574211   0.0015045581     0.29010967   0.0013589143     0.30867135   0.0015569517
            370     0.27330374   0.0014402497     0.25883651   0.0017677534     0.27543245   0.0014929802
            380     0.24824537   0.0013733222     0.23374134   0.0016822863     0.24985741   0.0014248338
            390     0.22294783   0.0013349747     0.20754498   0.0016198231     0.22416839   0.0013864469
            400     0.19999335   0.0012446013     0.18539044   0.0015178306     0.20087453   0.0012926471
            410     0.17890414   0.0011852813     0.16323136   0.0014813376     0.17908138   0.0011606429
            420     0.16177579   0.0011350701     0.14570036   0.0014961617     0.16225221   0.0011149705
            430     0.14502676    0.001080617      0.1311589   0.0013228227     0.14528323   0.0010541948
            440     0.13172149   0.0010348985      0.1167971   0.0012951964     0.13236261   0.0010104728
            450     0.11889372  0.00098800216     0.10446889   0.0012342404      0.1195949  0.00096453902
            460     0.10756712  0.00094459578    0.093477443   0.0011754943     0.10830296  0.00092057458
            470    0.097033299  0.00089833385    0.084045519   0.0011271511    0.097799599  0.00087684463
            480    0.087321554   0.0008612705    0.074563764    0.001115462    0.088179289  0.00083874252
            490    0.077649463  0.00083197937    0.065636838   0.0010506524    0.078587859  0.00080958278
            500    0.069792573  0.00078204303    0.058685803  0.00096910587    0.070651745  0.00076061492
            510    0.064998942  0.00075312256    0.053110435   0.0011926118    0.066303291  0.00074064442
            520    0.056701796  0.00071727199    0.045390935  0.00091258765    0.058184758   0.0006622395
            530    0.051485841  0.00068997385    0.040299616  0.00091427932     0.05312318  0.00063883822
            540    0.047338653  0.00066103393    0.037695213  0.00082956047    0.048585491  0.00060807721
            550    0.042754208  0.00063161146    0.033268143  0.00081941541    0.044169957  0.00058248215
            560    0.038417087  0.00060952913    0.029288508  0.00079391711    0.039831554  0.00056129993
            570    0.034951479  0.00058368176    0.025921948  0.00079741039    0.036540969  0.00054533208
            580    0.032617602  0.00056353919    0.023485351  0.00082312619    0.034334127  0.00054049898
            590    0.029410961  0.00053729349    0.021879063  0.00073711455    0.030671377  0.00049796318
            600    0.027010936  0.00051876512    0.019121781  0.00071166684    0.028451793  0.00047582567
            610    0.022690498  0.00048921356    0.014182213    0.001355077    0.024659196  0.00068516177
            620    0.021623619  0.00047337085    0.014983865  0.00062200117    0.022940941  0.00043775381
            630    0.020315791  0.00045812586    0.013707778  0.00064604186    0.021624451  0.00043177142
            640     0.01771061  0.00043595662    0.012053271  0.00057931025    0.018819789  0.00039826612
            650    0.015613955  0.00042231852   0.0095410832  0.00057724687    0.017008881  0.00037581832
            660    0.015689424  0.00040734906    0.010110928  0.00056319287    0.016875595  0.00037583218
            670    0.013622134  0.00038960115   0.0088928673  0.00050862513    0.014595959   0.0003534128
            680    0.011987676  0.00037508092   0.0064856314  0.00054573816    0.013391362  0.00034173555
            690    0.011059519  0.00035676299   0.0064622723  0.00050703296    0.012146462  0.00032274079
            700    0.010196525  0.00034353212   0.0059229554  0.00047063694    0.011242385  0.00030484226
            710   0.0099559993  0.00033993383   0.0056294984  0.00047841791    0.011022165  0.00030137135
            720   0.0079616466  0.00031590529   0.0038130509  0.00050537605   0.0091077606  0.00029891658
            730   0.0078086464  0.00030967432   0.0036598069  0.00049470906   0.0089675206  0.00029534597
            740   0.0073420055  0.00030188149   0.0037471228  0.00042280565     0.00829498  0.00026740625
            750   0.0064151571  0.00028916859   0.0030188755  0.00040048426   0.0073472611  0.00025604344
            760   0.0060207813  0.00028067628   0.0029821448  0.00041370126   0.0068427406  0.00025483967
            770   0.0053659641  0.00027003463   0.0023893849  0.00039255082     0.00621117  0.00024089406
            780   0.0052359682  0.00026247498   0.0022090936  0.00038667878   0.0061001728  0.00023964431
            790   0.0042347878  0.00024915767   0.0014139062  0.00036821912   0.0050995848  0.00021975715
            800   0.0042347878  0.00024915767   0.0014139062  0.00036821912   0.0050995848  0.00021975715
